 Co Density=8.9
 Energy(eV), Delta, Beta
  7650.  2.39489582E-05  5.24410893E-07
  7662.44287  2.37160402E-05  5.21268305E-07
  7674.90625  2.27804012E-05  5.18144418E-07
  7687.38916  2.05461001E-05  5.15039403E-07
  7699.89307  1.83260563E-05  5.11952919E-07
  7712.4165  1.70432249E-05  3.99745932E-06
  7724.96143  1.8098779E-05  3.97506301E-06
  7737.52539  1.91473082E-05  3.95279312E-06
  7750.11133  2.01888342E-05  3.93064647E-06
  7762.71631  2.12234063E-05  3.90862533E-06
  7775.34326  2.22510425E-05  3.88672606E-06
  7787.98926  2.32717957E-05  3.8649514E-06
  7800.65723  2.38164339E-05  3.84329178E-06
  7813.34424  2.38445828E-05  3.8217604E-06
  7826.05322  2.3872286E-05  3.80034771E-06
  7838.78223  2.38995653E-05  3.77905667E-06
  7851.53223  2.392641E-05  3.75788386E-06
  7864.30322  2.39528326E-05  3.73682974E-06
  7877.09424  2.39788315E-05  3.71589454E-06
  7889.90625  2.40044119E-05  3.69507597E-06
  7902.73926  2.40296322E-05  3.67436883E-06
  7915.59277  2.40543777E-05  3.65378378E-06
  7928.46777  2.40499412E-05  3.63326421E-06
  7941.36377  2.40265617E-05  3.61282764E-06
  7954.28076  2.40030822E-05  3.59250612E-06
  7967.21777  2.39795099E-05  3.57230033E-06
  7980.17627  2.39558321E-05  3.55220709E-06
  7993.15625  2.39320543E-05  3.53222708E-06
  8006.15771  2.39082074E-05  3.51235371E-06
  8019.17969  2.38842367E-05  3.49259767E-06
  8032.22314  2.3860166E-05  3.47295281E-06
  8045.28809  2.38360026E-05  3.45341869E-06
  8058.37354  2.37997938E-05  3.43393913E-06
  8071.47998  2.3759223E-05  3.41454938E-06
  8084.6084  2.37186578E-05  3.39526878E-06
  8097.75781  2.36781289E-05  3.37609254E-06
  8110.9292  2.36375927E-05  3.35702885E-06
  8124.12158  2.3597071E-05  3.33807407E-06
  8137.33594  2.35565585E-05  3.31922502E-06
  8150.57178  2.35160587E-05  3.30048238E-06
  8163.82861  2.34755807E-05  3.28184615E-06
  8177.10693  2.34351173E-05  3.26331542E-06
  8190.40674  2.33875544E-05  3.24482335E-06
  8203.72852  2.33388655E-05  3.22643041E-06
  8217.07227  2.32902439E-05  3.20814115E-06
  8230.4375  2.32416915E-05  3.18995558E-06
  8243.82422  2.31932117E-05  3.17187414E-06
  8257.23242  2.31448066E-05  3.1538948E-06
  8270.66406  2.30964579E-05  3.1360164E-06
  8284.11621  2.30482055E-05  3.11823578E-06
  8297.58984  2.30000078E-05  3.10056134E-06
  8311.08594  2.29518755E-05  3.08298604E-06
  8324.60352  2.28988429E-05  3.06546281E-06
  8338.14453  2.28458393E-05  3.04803757E-06
  8351.70605  2.27929449E-05  3.03071261E-06
  8365.29102  2.2740147E-05  3.01348496E-06
  8378.89648  2.26874581E-05  2.99635667E-06
  8392.52539  2.2634882E-05  2.9793207E-06
  8406.1748  2.25824006E-05  2.96238682E-06
  8419.84766  2.25300137E-05  2.94554798E-06
  8433.54297  2.24777323E-05  2.92880486E-06
  8447.26074  2.24251617E-05  2.91214928E-06
  8461.  2.23697189E-05  2.89552872E-06
  8474.76172  2.23143943E-05  2.87900298E-06
  8488.5459  2.22591934E-05  2.86257136E-06
  8502.35352  2.22041235E-05  2.84622911E-06
  8516.18164  2.21491773E-05  2.82998508E-06
  8530.0332  2.20943439E-05  2.81383313E-06
  8543.9082  2.20396341E-05  2.79777305E-06
  8557.80469  2.19850499E-05  2.78180505E-06
  8571.72461  2.19305821E-05  2.76592755E-06
  8585.66602  2.18756595E-05  2.75013099E-06
  8599.63086  2.18190435E-05  2.73438582E-06
  8613.61816  2.17625602E-05  2.71873455E-06
  8627.62793  2.17062097E-05  2.7031731E-06
  8641.66113  2.16499957E-05  2.68770032E-06
  8655.7168  2.15939199E-05  2.67231644E-06
  8669.7959  2.15379769E-05  2.65702056E-06
  8683.89746  2.14821721E-05  2.64181222E-06
  8698.02148  2.14265128E-05  2.62668732E-06
  8712.16992  2.13709736E-05  2.61165246E-06
  8726.33984  2.13149087E-05  2.59668491E-06
  8740.5332  2.12578416E-05  2.58177056E-06
  8754.74902  2.12009236E-05  2.56694284E-06
  8768.98926  2.11441475E-05  2.55219902E-06
  8783.25195  2.10875205E-05  2.53754069E-06
  8797.53809  2.10310354E-05  2.5229665E-06
  8811.84766  2.09747013E-05  2.50847188E-06
  8826.17969  2.09185073E-05  2.4940648E-06
  8840.53613  2.08624515E-05  2.47974003E-06
  8854.91504  2.08065467E-05  2.4654978E-06
  8869.31738  2.07500889E-05  2.45131832E-06
  8883.74414  2.06930727E-05  2.43720001E-06
  8898.19336  2.06362129E-05  2.42316355E-06
  8912.66602  2.05795113E-05  2.4092044E-06
  8927.16309  2.05229499E-05  2.39532915E-06
  8941.68262  2.0466543E-05  2.38153416E-06
  8956.22656  2.04102835E-05  2.3678183E-06
  8970.79395  2.03541749E-05  2.35418133E-06
  8985.38574  2.02982119E-05  2.34062259E-06
  9000.  2.02424035E-05  2.32714297E-06
