 Cu Density=8.94
 Energy(eV), Delta, Beta
  8700.  1.99844108E-05  4.06471031E-07
  8701.34961  1.99751339E-05  4.06227144E-07
  8702.69824  1.99658789E-05  4.05984082E-07
  8704.04883  1.99566057E-05  4.05740423E-07
  8705.39844  1.99473579E-05  4.05497673E-07
  8706.74902  1.99380956E-05  4.05254298E-07
  8708.09863  1.99288406E-05  4.05011264E-07
  8709.44922  1.9919602E-05  4.04768883E-07
  8710.80078  1.9910347E-05  4.04525878E-07
  8712.15234  1.99010974E-05  4.04283071E-07
  8713.50195  1.98918806E-05  4.04041344E-07
  8714.85352  1.98826383E-05  4.0379885E-07
  8716.20605  1.9873416E-05  4.03557152E-07
  8717.55762  1.98641865E-05  4.03315056E-07
  8718.91016  1.98549551E-05  4.0307296E-07
  8720.2627  1.98457474E-05  4.02831773E-07
  8721.61426  1.98354919E-05  4.0258999E-07
  8722.9668  1.98235321E-05  4.02348689E-07
  8724.32031  1.98115395E-05  4.02106764E-07
  8725.67285  1.9799556E-05  4.01865037E-07
  8727.02637  1.97876143E-05  4.01624192E-07
  8728.37988  1.97756399E-05  4.01382692E-07
  8729.7334  1.97636728E-05  4.01141477E-07
  8731.08789  1.97517438E-05  4.00900973E-07
  8732.44238  1.97397858E-05  4.00659957E-07
  8733.7959  1.97278732E-05  4.00419822E-07
  8735.15137  1.97159243E-05  4.0017909E-07
  8736.50586  1.97039844E-05  3.99938557E-07
  8737.86035  1.96920864E-05  3.99698877E-07
  8739.21582  1.96801575E-05  3.99458543E-07
  8740.57129  1.9668234E-05  3.99218408E-07
  8741.92676  1.96563506E-05  3.98979182E-07
  8743.28223  1.96444398E-05  3.98739331E-07
  8744.63867  1.96325673E-05  3.98500333E-07
  8745.99512  1.9620662E-05  3.98260681E-07
  8747.35156  1.96087676E-05  3.98021257E-07
  8748.70801  1.95969133E-05  3.97782827E-07
  8750.06445  1.95850298E-05  3.97543687E-07
  8751.42188  1.95731845E-05  3.97305371E-07
  8752.7793  1.95613084E-05  3.97066543E-07
  8754.13672  1.95494395E-05  3.96827858E-07
  8755.49414  1.95376124E-05  3.96589996E-07
  8756.85254  1.95257526E-05  3.96351567E-07
  8758.21094  1.95139E-05  3.96113251E-07
  8759.56934  1.95020875E-05  3.95875844E-07
  8760.92773  1.94902477E-05  3.95637898E-07
  8762.28613  1.94784461E-05  3.95400804E-07
  8763.64453  1.94666209E-05  3.95163141E-07
  8765.00488  1.94547902E-05  3.94925507E-07
  8766.36426  1.94430049E-05  3.94688811E-07
  8767.72363  1.94311924E-05  3.94451547E-07
  8769.08398  1.94193817E-05  3.94214368E-07
  8770.44336  1.94076165E-05  3.93978155E-07
  8771.80371  1.93958185E-05  3.93741345E-07
  8773.16406  1.93840606E-05  3.9350536E-07
  8774.52441  1.93722753E-05  3.93268806E-07
  8775.88574  1.93604919E-05  3.93032337E-07
  8777.24707  1.93487504E-05  3.9279675E-07
  8778.6084  1.93369797E-05  3.92560679E-07
  8779.96973  1.93252508E-05  3.92325376E-07
  8781.33105  1.93134911E-05  3.92089561E-07
  8782.69336  1.93017368E-05  3.91853803E-07
  8784.05566  1.92900206E-05  3.91619011E-07
  8785.41797  1.92782773E-05  3.91383566E-07
  8786.78027  1.92665757E-05  3.91149001E-07
  8788.14258  1.9254845E-05  3.90913868E-07
  8789.50684  1.92431144E-05  3.90678849E-07
  8790.86914  1.9231431E-05  3.90444768E-07
  8792.2334  1.92197094E-05  3.90209948E-07
  8793.5957  1.92080406E-05  3.89976179E-07
  8794.96094  1.919633E-05  3.89741643E-07
  8796.32422  1.9184632E-05  3.8950742E-07
  8797.68848  1.91729723E-05  3.89273993E-07
  8799.05371  1.91612799E-05  3.8903994E-07
  8800.41797  1.91495965E-05  3.88806086E-07
  8801.7832  1.91379513E-05  3.88573E-07
  8803.14746  1.91262825E-05  3.88339515E-07
  8804.5127  1.91146501E-05  3.88106798E-07
  8805.87891  1.91029849E-05  3.87873399E-07
  8807.24414  1.90913288E-05  3.87640284E-07
  8808.61035  1.90797109E-05  3.87407908E-07
  8809.97656  1.90680657E-05  3.87175049E-07
  8811.34277  1.9056426E-05  3.86942361E-07
  8812.70996  1.90448227E-05  3.86710383E-07
  8814.07617  1.90331957E-05  3.86477979E-07
  8815.44336  1.90216069E-05  3.86246342E-07
  8816.81055  1.90099854E-05  3.86014136E-07
  8818.17773  1.8998373E-05  3.85782101E-07
  8819.5459  1.89867988E-05  3.85550919E-07
  8820.91406  1.89751918E-05  3.85319083E-07
  8822.28125  1.89636339E-05  3.85088214E-07
  8823.64941  1.89520397E-05  3.84856662E-07
  8825.01855  1.89404527E-05  3.84625366E-07
  8826.3877  1.89289021E-05  3.84394781E-07
  8827.75684  1.89173243E-05  3.84163656E-07
  8829.12598  1.89057555E-05  3.83932786E-07
  8830.49512  1.88942249E-05  3.83702655E-07
  8831.86426  1.88826671E-05  3.8347207E-07
  8833.2334  1.88711474E-05  3.83242281E-07
  8834.60352  1.88595986E-05  3.83011894E-07
  8835.97363  1.88480535E-05  3.8278165E-07
  8837.34473  1.88365466E-05  3.82552201E-07
  8838.71484  1.8825016E-05  3.82322327E-07
  8840.08594  1.88134873E-05  3.82092452E-07
  8841.45703  1.88019985E-05  3.81863401E-07
  8842.82812  1.87904807E-05  3.81633924E-07
  8844.2002  1.8779001E-05  3.81405158E-07
  8845.57129  1.87674977E-05  3.81175965E-07
  8846.94336  1.87559945E-05  3.80946773E-07
  8848.31543  1.8744533E-05  3.80718518E-07
  8849.6875  1.87330443E-05  3.80489638E-07
  8851.06055  1.87215901E-05  3.80261554E-07
  8852.43262  1.87101123E-05  3.80033072E-07
  8853.80566  1.86986363E-05  3.79804618E-07
  8855.17969  1.86871985E-05  3.79576875E-07
  8856.55371  1.86757316E-05  3.79348677E-07
  8857.92676  1.86642737E-05  3.79120678E-07
  8859.30078  1.86528541E-05  3.78893446E-07
  8860.67383  1.86414109E-05  3.78665845E-07
  8862.04883  1.86299985E-05  3.78438813E-07
  8863.42285  1.85633344E-05  3.78211297E-07
  8864.79785  1.84915189E-05  3.77983895E-07
  8866.17285  1.84201526E-05  3.77757374E-07
  8867.54785  1.83484244E-05  3.77530313E-07
  8868.92285  1.82771437E-05  3.77303991E-07
  8870.29883  1.82054973E-05  3.77077185E-07
  8871.6748  1.81338983E-05  3.76850494E-07
  8873.0498  1.80627485E-05  3.76624712E-07
  8874.42578  1.79912331E-05  3.76398333E-07
  8875.80371  1.79197541E-05  3.76171869E-07
  8877.17969  1.78487298E-05  3.75946485E-07
  8878.55566  1.77773472E-05  3.75720589E-07
  8879.93359  1.77063994E-05  3.75495262E-07
  8881.31055  1.76351004E-05  3.75269565E-07
  8882.6875  1.75638415E-05  3.75044038E-07
  8884.06641  1.74930228E-05  3.74819109E-07
  8885.44336  1.74218494E-05  3.74593839E-07
  8886.82129  1.73511216E-05  3.74369392E-07
  8888.2002  1.72800283E-05  3.74144292E-07
  8889.57812  1.72089822E-05  3.73919363E-07
  8890.95703  1.71383781E-05  3.73695315E-07
  8892.33594  1.70674139E-05  3.73470613E-07
  8893.71582  1.69964915E-05  3.73246024E-07
  8895.09473  1.69260165E-05  3.73022431E-07
  8896.47461  1.68551778E-05  3.72798127E-07
  8897.85352  1.67847902E-05  3.7257476E-07
  8899.23438  1.67140333E-05  3.7235074E-07
  8900.61426  1.66433256E-05  3.7212692E-07
  8901.99512  1.6573058E-05  3.71903838E-07
  8903.375  1.65024358E-05  3.71680358E-07
  8904.75684  1.64318499E-05  3.71456821E-07
  8906.13672  1.63617133E-05  3.71234336E-07
  8907.51855  1.62912129E-05  3.71011083E-07
  8908.90039  1.62211545E-05  3.70788712E-07
  8910.28125  1.61507451E-05  3.70565886E-07
  8911.66406  1.60803684E-05  3.70343059E-07
  8913.04688  1.60104355E-05  3.70121029E-07
  8914.42871  1.59401479E-05  3.69898572E-07
  8915.81152  1.58699022E-05  3.69676229E-07
  8917.19336  1.58001021E-05  3.6945471E-07
  8918.57617  1.57299382E-05  3.69232652E-07
  8919.95996  1.56602164E-05  3.69011275E-07
  8921.34375  1.55901362E-05  3.68789472E-07
  8922.72656  1.55205016E-05  3.68568465E-07
  8924.11133  1.54505033E-05  3.68346832E-07
  8925.49512  1.53805504E-05  3.68125455E-07
  8926.87988  1.53110377E-05  3.67904732E-07
  8928.26367  1.52411712E-05  3.67683668E-07
  8929.64844  1.51713439E-05  3.6746269E-07
  8931.0332  1.51019567E-05  3.67242393E-07
  8932.41895  1.50322112E-05  3.6702167E-07
  8933.80469  1.49625066E-05  3.66800975E-07
  8935.19043  1.4893245E-05  3.66581105E-07
  8936.5752  1.48236286E-05  3.66360837E-07
  8937.96094  1.47544515E-05  3.66141307E-07
  8939.34766  1.46849143E-05  3.65921153E-07
  8940.73438  1.46154189E-05  3.65701169E-07
  8942.12109  1.45463655E-05  3.65481981E-07
  8943.50781  1.44769556E-05  3.65262281E-07
  8944.89551  1.44079831E-05  3.6504332E-07
  8946.28223  1.43386569E-05  3.64823961E-07
  8947.66992  1.42693707E-05  3.64604603E-07
  8949.05762  1.42005238E-05  3.64386096E-07
  8950.44531  1.41313212E-05  3.64167107E-07
  8951.83398  1.40621596E-05  3.63948146E-07
  8953.22266  1.39934355E-05  3.63729981E-07
  8954.61133  1.39243575E-05  3.63511333E-07
  8956.  1.3855718E-05  3.63293509E-07
  8957.38867  1.37867237E-05  3.63075145E-07
  8958.77832  1.37177676E-05  3.62856838E-07
  8960.16699  1.36492554E-05  3.62639469E-07
  8961.55664  1.3580383E-05  3.62421474E-07
  8962.94629  1.35119508E-05  3.62204247E-07
  8964.33691  1.34431612E-05  3.61986508E-07
  8965.72656  1.33744152E-05  3.61768969E-07
  8967.11816  1.3306103E-05  3.61552054E-07
  8968.50879  1.3237438E-05  3.61334742E-07
  8969.89941  1.31688157E-05  3.61117543E-07
  8971.29102  1.31006273E-05  3.60901083E-07
  8972.68164  1.30320896E-05  3.60684226E-07
  8974.07324  1.29639848E-05  3.6046805E-07
  8975.46582  1.28955244E-05  3.60251335E-07
  8976.85742  1.28271085E-05  3.60034818E-07
  8978.25  1.27591256E-05  3.59818983E-07
  8979.6416  1.28355905E-05  2.79148526E-06
  8981.03516  1.30592143E-05  2.7899905E-06
  8982.42773  1.32841051E-05  2.78849302E-06
  8983.82129  1.35088549E-05  2.78699667E-06
  8985.21484  1.37320603E-05  2.78550465E-06
  8986.6084  1.39565282E-05  2.78400967E-06
  8988.00195  1.41808578E-05  2.78251537E-06
  8989.39648  1.44036412E-05  2.78102561E-06
  8990.79004  1.46276916E-05  2.77953359E-06
  8992.18457  1.48501977E-05  2.77804565E-06
  8993.5791  1.50739652E-05  2.77655477E-06
  8994.97363  1.52975936E-05  2.77506479E-06
  8996.36914  1.55196794E-05  2.7735789E-06
  8997.76465  1.57430277E-05  2.77209028E-06
  8999.15918  1.59648407E-05  2.77060713E-06
  9000.55566  1.61879052E-05  2.76911987E-06
  9001.95117  1.64108351E-05  2.76763376E-06
  9003.34766  1.66322243E-05  2.76615219E-06
  9004.74414  1.68548722E-05  2.76466744E-06
  9006.14062  1.69792456E-05  2.7631836E-06
  9007.53711  1.69883388E-05  2.76170454E-06
  9008.93457  1.69975119E-05  2.76022161E-06
  9010.33105  1.70065941E-05  2.7587439E-06
  9011.72949  1.70157509E-05  2.75726256E-06
  9013.12695  1.70249041E-05  2.75578304E-06
  9014.52441  1.70339626E-05  2.75430762E-06
  9015.92285  1.70430994E-05  2.75282923E-06
  9017.32129  1.70521416E-05  2.75135517E-06
  9018.71973  1.70612657E-05  2.74987838E-06
  9020.11914  1.7070377E-05  2.74840158E-06
  9021.51758  1.7079401E-05  2.74693025E-06
  9022.91699  1.70885014E-05  2.74545573E-06
  9024.31641  1.70975964E-05  2.74398212E-06
  9025.71582  1.71065949E-05  2.74251306E-06
  9027.11523  1.71156771E-05  2.74104104E-06
  9028.51562  1.71246593E-05  2.73957335E-06
  9029.91602  1.71337251E-05  2.73810269E-06
  9031.31641  1.71427837E-05  2.73663272E-06
  9032.71777  1.71517422E-05  2.73516753E-06
  9034.11816  1.7160788E-05  2.7336996E-06
  9035.51855  1.71697393E-05  2.732236E-06
  9036.9209  1.71787651E-05  2.73076898E-06
  9038.32227  1.71877873E-05  2.72930356E-06
  9039.72461  1.71967113E-05  2.72784155E-06
  9041.12598  1.72057207E-05  2.72637794E-06
  9042.52734  1.72146374E-05  2.72491866E-06
  9043.93066  1.72236269E-05  2.72345551E-06
  9045.33301  1.72326145E-05  2.7219935E-06
  9046.73633  1.72415021E-05  2.72053558E-06
  9048.13965  1.72504715E-05  2.71907538E-06
  9049.54297  1.72594355E-05  2.7176161E-06
  9050.94629  1.72683049E-05  2.71616091E-06
  9052.35059  1.72772525E-05  2.71470276E-06
  9053.75391  1.72861983E-05  2.71324575E-06
  9055.1582  1.7295044E-05  2.71179306E-06
  9056.5625  1.73039734E-05  2.71033741E-06
  9057.96777  1.73128028E-05  2.70888563E-06
  9059.37207  1.73217195E-05  2.70743203E-06
  9060.77734  1.73306253E-05  2.70597866E-06
  9062.18262  1.73394365E-05  2.70452983E-06
  9063.58789  1.73483295E-05  2.70307828E-06
  9064.99414  1.73572116E-05  2.70162695E-06
  9066.39941  1.73660046E-05  2.70018108E-06
  9067.80566  1.7374874E-05  2.69873112E-06
  9069.21191  1.73836506E-05  2.69728662E-06
  9070.61914  1.73925055E-05  2.69583825E-06
  9072.02539  1.74013567E-05  2.69439147E-06
  9073.43262  1.74101096E-05  2.69294878E-06
  9074.84082  1.74189408E-05  2.69150269E-06
  9076.24805  1.74276829E-05  2.69006159E-06
  9077.65527  1.7436505E-05  2.688618E-06
  9079.0625  1.74453198E-05  2.68717508E-06
  9080.4707  1.74540382E-05  2.68573649E-06
  9081.87891  1.74628385E-05  2.68429494E-06
  9083.28809  1.74715406E-05  2.68285703E-06
  9084.69727  1.74803245E-05  2.68141685E-06
  9086.10547  1.74891047E-05  2.67997802E-06
  9087.51465  1.74977886E-05  2.67854307E-06
  9088.9248  1.75065488E-05  2.67710493E-06
  9090.33398  1.75153073E-05  2.67566793E-06
  9091.74414  1.75239693E-05  2.67423547E-06
  9093.1543  1.75327095E-05  2.67279961E-06
  9094.56445  1.75413588E-05  2.67136897E-06
  9095.97461  1.75500882E-05  2.66993516E-06
  9097.38574  1.75588066E-05  2.66850179E-06
  9098.79688  1.75674322E-05  2.66707275E-06
  9100.20703  1.75761434E-05  2.66564166E-06
  9101.61914  1.75848418E-05  2.66421034E-06
  9103.03027  1.75934492E-05  2.66278425E-06
  9104.44336  1.76021294E-05  2.66135407E-06
  9105.85449  1.7610726E-05  2.65993003E-06
  9107.2666  1.76193953E-05  2.65850213E-06
  9108.67969  1.76280591E-05  2.6570749E-06
  9110.0918  1.76366302E-05  2.65565268E-06
  9111.50488  1.76452813E-05  2.65422705E-06
  9112.91797  1.76538379E-05  2.65280573E-06
  9114.33203  1.76624708E-05  2.65138146E-06
  9115.74512  1.76711019E-05  2.64995833E-06
  9117.15918  1.76796366E-05  2.64853952E-06
  9118.57227  1.7688255E-05  2.64711798E-06
  9119.9873  1.76968588E-05  2.6456969E-06
  9121.40234  1.77053716E-05  2.6442799E-06
  9122.81641  1.77139682E-05  2.64286109E-06
  9124.23145  1.77224665E-05  2.64144592E-06
  9125.64648  1.77310467E-05  2.64002824E-06
  9127.06152  1.77396214E-05  2.63861102E-06
  9128.47754  1.77480997E-05  2.63719812E-06
  9129.89258  1.77566617E-05  2.63578272E-06
  9131.30957  1.77652091E-05  2.63436732E-06
  9132.72559  1.77736692E-05  2.63295715E-06
  9134.1416  1.77822076E-05  2.63154425E-06
  9135.55859  1.77906513E-05  2.63013476E-06
  9136.97559  1.77991733E-05  2.62872322E-06
  9138.3916  1.78076098E-05  2.62731623E-06
  9139.80957  1.78161154E-05  2.62590561E-06
  9141.22754  1.78246173E-05  2.62449544E-06
  9142.64551  1.78330265E-05  2.62309072E-06
  9144.0625  1.78415194E-05  2.62168282E-06
  9145.48145  1.78499995E-05  2.62027538E-06
  9146.89941  1.78583887E-05  2.61887271E-06
  9148.31836  1.78668561E-05  2.61746686E-06
  9149.7373  1.78752307E-05  2.61606533E-06
  9151.15625  1.78836835E-05  2.61466107E-06
  9152.5752  1.7883016E-05  2.61325317E-06
  9153.99512  1.78822575E-05  2.61184982E-06
  9155.41504  1.7881528E-05  2.61044352E-06
  9156.83496  1.78807986E-05  2.60903744E-06
  9158.25488  1.78800365E-05  2.60763659E-06
  9159.67578  1.78793034E-05  2.60623256E-06
  9161.0957  1.78785431E-05  2.60483307E-06
  9162.5166  1.78778064E-05  2.60343063E-06
  9163.93848  1.78770661E-05  2.60202842E-06
  9165.35938  1.78763021E-05  2.60063098E-06
  9166.78125  1.78755618E-05  2.59923058E-06
  9168.20215  1.78747941E-05  2.59783474E-06
  9169.625  1.78740502E-05  2.59643571E-06
  9171.04688  1.7873308E-05  2.59503804E-06
  9172.46875  1.7872535E-05  2.59364447E-06
  9173.8916  1.78717892E-05  2.59224794E-06
  9175.31445  1.78710434E-05  2.59085209E-06
  9176.7373  1.78702667E-05  2.58946079E-06
  9178.16016  1.78695191E-05  2.58806676E-06
  9179.58398  1.78687387E-05  2.58667683E-06
  9181.00879  1.7867982E-05  2.58528326E-06
  9182.43262  1.7867229E-05  2.58389127E-06
  9183.85645  1.78664468E-05  2.58250407E-06
  9185.28027  1.78656956E-05  2.58111368E-06
  9186.70508  1.7864937E-05  2.57972374E-06
  9188.12988  1.78641494E-05  2.57833858E-06
  9189.55566  1.78633873E-05  2.57694956E-06
  9190.98047  1.78625996E-05  2.57556599E-06
  9192.40527  1.78618411E-05  2.57417969E-06
  9193.83105  1.78610771E-05  2.57279316E-06
  9195.25781  1.78602804E-05  2.57141119E-06
  9196.68359  1.78595183E-05  2.57002694E-06
  9198.10938  1.78587252E-05  2.56864701E-06
  9199.53613  1.78579558E-05  2.56726389E-06
  9200.96387  1.78571827E-05  2.565881E-06
  9202.38965  1.78563878E-05  2.56450357E-06
  9203.81738  1.78556165E-05  2.56312273E-06
  9205.24512  1.78548416E-05  2.56174212E-06
  9206.67285  1.78540377E-05  2.56036651E-06
  9208.09961  1.78532664E-05  2.55898863E-06
  9209.52832  1.78524606E-05  2.55761415E-06
  9210.95703  1.78516802E-05  2.55623672E-06
  9212.38574  1.78509017E-05  2.55486043E-06
  9213.81445  1.78500923E-05  2.553488E-06
  9215.24414  1.78493083E-05  2.55211285E-06
  9216.67285  1.78484988E-05  2.55074247E-06
  9218.10156  1.78477185E-05  2.54936936E-06
  9219.53223  1.7846929E-05  2.54799647E-06
  9220.96094  1.78461178E-05  2.54662859E-06
  9222.3916  1.78453283E-05  2.5452573E-06
  9223.82129  1.78445134E-05  2.54389079E-06
  9225.25293  1.78437185E-05  2.54252018E-06
  9226.68359  1.78429291E-05  2.54115116E-06
  9228.11426  1.78421087E-05  2.53978692E-06
  9229.5459  1.78413138E-05  2.53841881E-06
  9230.97656  1.78405226E-05  2.53705275E-06
  9232.40918  1.78396931E-05  2.53568987E-06
  9233.83984  1.78389E-05  2.53432495E-06
  9235.27246  1.78380706E-05  2.53296389E-06
  9236.70508  1.78372702E-05  2.53159988E-06
  9238.1377  1.7836468E-05  2.53023654E-06
  9239.57031  1.78356386E-05  2.52887799E-06
  9241.00391  1.78348328E-05  2.52751602E-06
  9242.43652  1.78340306E-05  2.52615541E-06
  9243.87012  1.78331957E-05  2.5247989E-06
  9245.30371  1.78323899E-05  2.52343898E-06
  9246.73828  1.78315495E-05  2.52208361E-06
  9248.17188  1.78307437E-05  2.52072618E-06
  9249.60645  1.78299324E-05  2.51936831E-06
  9251.04102  1.78290902E-05  2.51801544E-06
  9252.47559  1.78282789E-05  2.51666006E-06
  9253.91113  1.78274622E-05  2.51530446E-06
  9255.3457  1.782662E-05  2.51395431E-06
  9256.78125  1.78258033E-05  2.51260053E-06
  9258.2168  1.78249575E-05  2.51125107E-06
  9259.65332  1.78241353E-05  2.50989865E-06
  9261.08984  1.78233131E-05  2.50854691E-06
  9262.52637  1.78224636E-05  2.5071995E-06
  9263.96289  1.78216414E-05  2.50584981E-06
  9265.39844  1.78207938E-05  2.50450466E-06
  9266.83594  1.78199662E-05  2.50315588E-06
  9268.27246  1.7819144E-05  2.50180847E-06
  9269.71094  1.78182818E-05  2.50046423E-06
  9271.14844  1.78174541E-05  2.49911818E-06
  9272.58594  1.78165974E-05  2.49777645E-06
  9274.02441  1.78157643E-05  2.49643108E-06
  9275.46289  1.78149312E-05  2.49508685E-06
  9276.90137  1.78140708E-05  2.49374716E-06
  9278.33984  1.78132377E-05  2.49240452E-06
  9279.7793  1.78123992E-05  2.49106211E-06
  9281.21777  1.78115388E-05  2.48972515E-06
  9282.65723  1.78106984E-05  2.4883841E-06
  9284.09863  1.78098544E-05  2.4870435E-06
  9285.53809  1.78089849E-05  2.48570814E-06
  9286.97852  1.78081427E-05  2.48436959E-06
  9288.41797  1.78072751E-05  2.48303604E-06
  9289.8584  1.78064311E-05  2.48169886E-06
  9291.2998  1.78055834E-05  2.48036235E-06
  9292.74023  1.78047103E-05  2.47903063E-06
  9294.18164  1.78038626E-05  2.47769594E-06
  9295.62402  1.78029823E-05  2.47636467E-06
  9297.06543  1.78021328E-05  2.47503158E-06
  9298.50684  1.78012833E-05  2.47369894E-06
  9299.94922  1.77994698E-05  2.47236744E-06
  9301.39062  1.77968959E-05  2.47103139E-06
  9302.83398  1.77942984E-05  2.46969876E-06
  9304.27734  1.77917154E-05  2.46836316E-06
  9305.71973  1.77891416E-05  2.46702916E-06
  9307.16406  1.77865404E-05  2.46569834E-06
  9308.60645  1.77839647E-05  2.46436593E-06
  9310.0498  1.77813708E-05  2.46303716E-06
  9311.49512  1.77787879E-05  2.46170498E-06
  9312.93848  1.77762122E-05  2.46037462E-06
  9314.38281  1.77736147E-05  2.45904812E-06
  9315.82812  1.77710335E-05  2.45771821E-06
  9317.27246  1.7768456E-05  2.45638989E-06
  9318.7168  1.77658621E-05  2.45506567E-06
  9320.16309  1.77632792E-05  2.45373781E-06
  9321.6084  1.77606998E-05  2.45241131E-06
  9323.05469  1.77581005E-05  2.45108845E-06
